      alt[km]    geometric factor
 5.000000E-01         1.011453E-37
 1.500000E+00         1.677822E-30
 2.500000E+00         3.713735E-25
 3.500000E+00         4.249601E-21
 4.500000E+00         5.973994E-18
 5.500000E+00         1.830583E-15
 6.500000E+00         1.808853E-13
 7.500000E+00         7.584844E-12
 8.500000E+00         1.643382E-10
 9.500000E+00         2.124934E-09
 1.050000E+01         1.825384E-08
 1.150000E+01         1.129800E-07
 1.250000E+01         5.361863E-07
 1.350000E+01         2.047825E-06
 1.450000E+01         6.537807E-06
 1.550000E+01         1.798189E-05
 1.650000E+01         4.365228E-05
 1.750000E+01         9.537706E-05
 1.850000E+01         1.905793E-04
 1.950000E+01         3.528546E-04
 2.050000E+01         6.119480E-04
 2.150000E+01         1.003121E-03
 2.250000E+01         1.566009E-03
 2.350000E+01         2.343149E-03
 2.450000E+01         3.378346E-03
 2.550000E+01         4.715061E-03
 2.650000E+01         6.394931E-03
 2.750000E+01         8.456501E-03
 2.850000E+01         1.093420E-02
 2.950000E+01         1.385755E-02
 3.050000E+01         1.725065E-02
 3.150000E+01         2.113186E-02
 3.250000E+01         2.551361E-02
 3.350000E+01         3.040251E-02
 3.450000E+01         3.579947E-02
 3.550000E+01         4.170000E-02
 3.650000E+01         4.809461E-02
 3.750000E+01         5.496924E-02
 3.850000E+01         6.230581E-02
 3.950000E+01         7.008273E-02
 4.050000E+01         7.827546E-02
 4.150000E+01         8.685709E-02
 4.250000E+01         9.579888E-02
 4.350000E+01         1.050708E-01
 4.450000E+01         1.146418E-01
 4.550000E+01         1.244807E-01
 4.650000E+01         1.345562E-01
 4.750000E+01         1.448373E-01
 4.850000E+01         1.552936E-01
 4.950000E+01         1.658958E-01
 5.050000E+01         1.766154E-01
 5.150000E+01         1.874255E-01
 5.250000E+01         1.983002E-01
 5.350000E+01         2.092154E-01
 5.450000E+01         2.201483E-01
 5.550000E+01         2.310778E-01
 5.650000E+01         2.419844E-01
 5.750000E+01         2.528499E-01
 5.850000E+01         2.636579E-01
 5.950000E+01         2.743935E-01
 6.050000E+01         2.850428E-01
 6.150000E+01         2.955939E-01
 6.250000E+01         3.060357E-01
 6.350000E+01         3.163585E-01
 6.450000E+01         3.265539E-01
 6.550000E+01         3.366144E-01
 6.650000E+01         3.465336E-01
 6.750000E+01         3.563059E-01
 6.850000E+01         3.659269E-01
 6.950000E+01         3.753927E-01
 7.050000E+01         3.847003E-01
 7.150000E+01         3.938473E-01
 7.250000E+01         4.028318E-01
 7.350000E+01         4.116528E-01
 7.450000E+01         4.203095E-01
 7.550000E+01         4.288016E-01
 7.650000E+01         4.371295E-01
 7.750000E+01         4.452935E-01
 7.850000E+01         4.532945E-01
 7.950000E+01         4.611338E-01
 8.050000E+01         4.688128E-01
 8.150000E+01         4.763330E-01
 8.250000E+01         4.836964E-01
 8.350000E+01         4.909049E-01
 8.450000E+01         4.979607E-01
 8.550000E+01         5.048661E-01
 8.650000E+01         5.116235E-01
 8.750000E+01         5.182354E-01
 8.850000E+01         5.247043E-01
 8.950000E+01         5.310329E-01
 9.050000E+01         5.372237E-01
 9.150000E+01         5.432795E-01
 9.250000E+01         5.492030E-01
 9.350000E+01         5.549969E-01
 9.450000E+01         5.606639E-01
 9.550000E+01         5.662067E-01
 9.650000E+01         5.716281E-01
 9.750000E+01         5.769306E-01
 9.850000E+01         5.821170E-01
 9.950000E+01         5.871900E-01
 1.005000E+02         5.921521E-01
 1.015000E+02         5.970058E-01
 1.025000E+02         6.017538E-01
 1.035000E+02         6.063985E-01
 1.045000E+02         6.109424E-01
 1.055000E+02         6.153878E-01
 1.065000E+02         6.197372E-01
 1.075000E+02         6.239929E-01
 1.085000E+02         6.281571E-01
 1.095000E+02         6.322321E-01
 1.105000E+02         6.362200E-01
 1.115000E+02         6.401230E-01
 1.125000E+02         6.439431E-01
 1.135000E+02         6.476825E-01
 1.145000E+02         6.513431E-01
 1.155000E+02         6.549267E-01
 1.165000E+02         6.584354E-01
 1.175000E+02         6.618710E-01
 1.185000E+02         6.652352E-01
 1.195000E+02         6.685299E-01
 1.205000E+02         6.717567E-01
 1.215000E+02         6.749174E-01
 1.225000E+02         6.780135E-01
 1.235000E+02         6.810466E-01
 1.245000E+02         6.840182E-01
 1.255000E+02         6.869300E-01
 1.265000E+02         6.897833E-01
 1.275000E+02         6.925796E-01
 1.285000E+02         6.953202E-01
 1.295000E+02         6.980066E-01
 1.305000E+02         7.006399E-01
 1.315000E+02         7.032216E-01
 1.325000E+02         7.057528E-01
 1.335000E+02         7.082348E-01
 1.345000E+02         7.106687E-01
 1.355000E+02         7.130558E-01
 1.365000E+02         7.153970E-01
 1.375000E+02         7.176935E-01
 1.385000E+02         7.199464E-01
 1.395000E+02         7.221567E-01
 1.405000E+02         7.243253E-01
 1.415000E+02         7.264534E-01
 1.425000E+02         7.285417E-01
 1.435000E+02         7.305913E-01
 1.445000E+02         7.326030E-01
 1.455000E+02         7.345777E-01
 1.465000E+02         7.365163E-01
 1.475000E+02         7.384196E-01
 1.485000E+02         7.402884E-01
 1.495000E+02         7.421234E-01
 1.505000E+02         7.439255E-01
 1.515000E+02         7.456954E-01
 1.525000E+02         7.474339E-01
 1.535000E+02         7.491415E-01
 1.545000E+02         7.508191E-01
 1.555000E+02         7.524672E-01
 1.565000E+02         7.540865E-01
 1.575000E+02         7.556778E-01
 1.585000E+02         7.572414E-01
 1.595000E+02         7.587782E-01
 1.605000E+02         7.602887E-01
 1.615000E+02         7.617734E-01
 1.625000E+02         7.632329E-01
 1.635000E+02         7.646677E-01
 1.645000E+02         7.660784E-01
 1.655000E+02         7.674654E-01
 1.665000E+02         7.688294E-01
 1.675000E+02         7.701707E-01
 1.685000E+02         7.714899E-01
 1.695000E+02         7.727874E-01
 1.705000E+02         7.740636E-01
 1.715000E+02         7.753191E-01
 1.725000E+02         7.765542E-01
 1.735000E+02         7.777693E-01
 1.745000E+02         7.789649E-01
 1.755000E+02         7.801414E-01
 1.765000E+02         7.812991E-01
 1.775000E+02         7.824385E-01
 1.785000E+02         7.835599E-01
 1.795000E+02         7.846636E-01
 1.805000E+02         7.857501E-01
 1.815000E+02         7.868196E-01
 1.825000E+02         7.878726E-01
 1.835000E+02         7.889092E-01
 1.845000E+02         7.899299E-01
 1.855000E+02         7.909350E-01
 1.865000E+02         7.919247E-01
 1.875000E+02         7.928994E-01
 1.885000E+02         7.938594E-01
 1.895000E+02         7.948049E-01
 1.905000E+02         7.957362E-01
 1.915000E+02         7.966536E-01
 1.925000E+02         7.975573E-01
 1.935000E+02         7.984477E-01
 1.945000E+02         7.993249E-01
 1.955000E+02         8.001893E-01
 1.965000E+02         8.010410E-01
 1.975000E+02         8.018802E-01
 1.985000E+02         8.027073E-01
 1.995000E+02         8.035225E-01
 2.005000E+02         8.043259E-01
 2.015000E+02         8.051178E-01
 2.025000E+02         8.058983E-01
 2.035000E+02         8.066678E-01
 2.045000E+02         8.074264E-01
 2.055000E+02         8.081742E-01
 2.065000E+02         8.089116E-01
 2.075000E+02         8.096386E-01
 2.085000E+02         8.103555E-01
 2.095000E+02         8.110624E-01
 2.105000E+02         8.117595E-01
 2.115000E+02         8.124470E-01
 2.125000E+02         8.131251E-01
 2.135000E+02         8.137938E-01
 2.145000E+02         8.144535E-01
 2.155000E+02         8.151042E-01
 2.165000E+02         8.157461E-01
 2.175000E+02         8.163794E-01
 2.185000E+02         8.170041E-01
 2.195000E+02         8.176205E-01
 2.205000E+02         8.182286E-01
 2.215000E+02         8.188287E-01
 2.225000E+02         8.194209E-01
 2.235000E+02         8.200052E-01
 2.245000E+02         8.205818E-01
 2.255000E+02         8.211509E-01
 2.265000E+02         8.217126E-01
 2.275000E+02         8.222670E-01
 2.285000E+02         8.228142E-01
 2.295000E+02         8.233543E-01
 2.305000E+02         8.238875E-01
 2.315000E+02         8.244138E-01
 2.325000E+02         8.249334E-01
 2.335000E+02         8.254465E-01
 2.345000E+02         8.259530E-01
 2.355000E+02         8.264530E-01
 2.365000E+02         8.269468E-01
 2.375000E+02         8.274344E-01
 2.385000E+02         8.279159E-01
 2.395000E+02         8.283914E-01
 2.405000E+02         8.288610E-01
 2.415000E+02         8.293248E-01
 2.425000E+02         8.297828E-01
 2.435000E+02         8.302352E-01
 2.445000E+02         8.306820E-01
 2.455000E+02         8.311234E-01
 2.465000E+02         8.315594E-01
 2.475000E+02         8.319901E-01
 2.485000E+02         8.324156E-01
 2.495000E+02         8.328360E-01
 2.505000E+02         8.332513E-01
 2.515000E+02         8.336616E-01
 2.525000E+02         8.340671E-01
 2.535000E+02         8.344677E-01
 2.545000E+02         8.348635E-01
 2.555000E+02         8.352546E-01
 2.565000E+02         8.356412E-01
 2.575000E+02         8.360231E-01
 2.585000E+02         8.364006E-01
 2.595000E+02         8.367737E-01
 2.605000E+02         8.371425E-01
 2.615000E+02         8.375069E-01
 2.625000E+02         8.378672E-01
 2.635000E+02         8.382232E-01
 2.645000E+02         8.385752E-01
 2.655000E+02         8.389231E-01
 2.665000E+02         8.392671E-01
 2.675000E+02         8.396071E-01
 2.685000E+02         8.399432E-01
 2.695000E+02         8.402756E-01
 2.705000E+02         8.406041E-01
 2.715000E+02         8.409290E-01
 2.725000E+02         8.412502E-01
 2.735000E+02         8.415678E-01
 2.745000E+02         8.418819E-01
 2.755000E+02         8.421925E-01
 2.765000E+02         8.424996E-01
 2.775000E+02         8.428033E-01
 2.785000E+02         8.431036E-01
 2.795000E+02         8.434007E-01
 2.805000E+02         8.436944E-01
 2.815000E+02         8.439850E-01
 2.825000E+02         8.442723E-01
 2.835000E+02         8.445566E-01
 2.845000E+02         8.448377E-01
 2.855000E+02         8.451158E-01
 2.865000E+02         8.453909E-01
 2.875000E+02         8.456630E-01
 2.885000E+02         8.459322E-01
 2.895000E+02         8.461986E-01
 2.905000E+02         8.464620E-01
 2.915000E+02         8.467227E-01
 2.925000E+02         8.469806E-01
 2.935000E+02         8.472357E-01
 2.945000E+02         8.474882E-01
 2.955000E+02         8.477379E-01
 2.965000E+02         8.479851E-01
 2.975000E+02         8.482297E-01
 2.985000E+02         8.484717E-01
 2.995000E+02         8.487111E-01
 3.005000E+02         8.489481E-01
 3.015000E+02         8.491826E-01
 3.025000E+02         8.494147E-01
 3.035000E+02         8.496444E-01
 3.045000E+02         8.498717E-01
 3.055000E+02         8.500967E-01
 3.065000E+02         8.503193E-01
 3.075000E+02         8.505397E-01
 3.085000E+02         8.507579E-01
 3.095000E+02         8.509738E-01
 3.105000E+02         8.511875E-01
 3.115000E+02         8.513991E-01
 3.125000E+02         8.516085E-01
 3.135000E+02         8.518158E-01
 3.145000E+02         8.520210E-01
 3.155000E+02         8.522242E-01
 3.165000E+02         8.524253E-01
 3.175000E+02         8.526245E-01
 3.185000E+02         8.528216E-01
 3.195000E+02         8.530168E-01
 3.205000E+02         8.532100E-01
 3.215000E+02         8.534014E-01
 3.225000E+02         8.535908E-01
 3.235000E+02         8.537784E-01
 3.245000E+02         8.539641E-01
 3.255000E+02         8.541480E-01
 3.265000E+02         8.543302E-01
 3.275000E+02         8.545105E-01
 3.285000E+02         8.546891E-01
 3.295000E+02         8.548659E-01
 3.305000E+02         8.550411E-01
 3.315000E+02         8.552145E-01
 3.325000E+02         8.553863E-01
 3.335000E+02         8.555564E-01
 3.345000E+02         8.557249E-01
 3.355000E+02         8.558918E-01
 3.365000E+02         8.560571E-01
 3.375000E+02         8.562208E-01
 3.385000E+02         8.563829E-01
 3.395000E+02         8.565435E-01
 3.405000E+02         8.567026E-01
 3.415000E+02         8.568602E-01
 3.425000E+02         8.570163E-01
 3.435000E+02         8.571709E-01
 3.445000E+02         8.573241E-01
 3.455000E+02         8.574758E-01
 3.465000E+02         8.576261E-01
 3.475000E+02         8.577750E-01
 3.485000E+02         8.579226E-01
 3.495000E+02         8.580687E-01
 3.505000E+02         8.582135E-01
 3.515000E+02         8.583570E-01
 3.525000E+02         8.584991E-01
 3.535000E+02         8.586399E-01
 3.545000E+02         8.587795E-01
 3.555000E+02         8.589177E-01
 3.565000E+02         8.590547E-01
 3.575000E+02         8.591904E-01
 3.585000E+02         8.593249E-01
 3.595000E+02         8.594582E-01
 3.605000E+02         8.595902E-01
 3.615000E+02         8.597211E-01
 3.625000E+02         8.598508E-01
 3.635000E+02         8.599793E-01
 3.645000E+02         8.601066E-01
 3.655000E+02         8.602328E-01
 3.665000E+02         8.603579E-01
 3.675000E+02         8.604818E-01
 3.685000E+02         8.606046E-01
 3.695000E+02         8.607264E-01
 3.705000E+02         8.608470E-01
 3.715000E+02         8.609666E-01
 3.725000E+02         8.610851E-01
 3.735000E+02         8.612026E-01
 3.745000E+02         8.613190E-01
 3.755000E+02         8.614344E-01
 3.765000E+02         8.615488E-01
 3.775000E+02         8.616622E-01
 3.785000E+02         8.617746E-01
 3.795000E+02         8.618860E-01
 3.805000E+02         8.619964E-01
 3.815000E+02         8.621059E-01
 3.825000E+02         8.622144E-01
 3.835000E+02         8.623220E-01
 3.845000E+02         8.624286E-01
 3.855000E+02         8.625343E-01
 3.865000E+02         8.626391E-01
 3.875000E+02         8.627430E-01
 3.885000E+02         8.628460E-01
 3.895000E+02         8.629481E-01
 3.905000E+02         8.630493E-01
 3.915000E+02         8.631497E-01
 3.925000E+02         8.632492E-01
 3.935000E+02         8.633478E-01
 3.945000E+02         8.634456E-01
 3.955000E+02         8.635426E-01
 3.965000E+02         8.636388E-01
 3.975000E+02         8.637341E-01
 3.985000E+02         8.638286E-01
 3.995000E+02         8.639224E-01
 4.005000E+02         8.640153E-01
 4.015000E+02         8.641075E-01
 4.025000E+02         8.641989E-01
 4.035000E+02         8.642895E-01
 4.045000E+02         8.643793E-01
 4.055000E+02         8.644684E-01
 4.065000E+02         8.645568E-01
 4.075000E+02         8.646444E-01
 4.085000E+02         8.647313E-01
 4.095000E+02         8.648175E-01
 4.105000E+02         8.649029E-01
 4.115000E+02         8.649877E-01
 4.125000E+02         8.650717E-01
 4.135000E+02         8.651551E-01
 4.145000E+02         8.652377E-01
 4.155000E+02         8.653197E-01
 4.165000E+02         8.654010E-01
 4.175000E+02         8.654817E-01
 4.185000E+02         8.655616E-01
 4.195000E+02         8.656410E-01
 4.205000E+02         8.657196E-01
 4.215000E+02         8.657977E-01
 4.225000E+02         8.658751E-01
 4.235000E+02         8.659518E-01
 4.245000E+02         8.660280E-01
 4.255000E+02         8.661035E-01
 4.265000E+02         8.661784E-01
 4.275000E+02         8.662528E-01
 4.285000E+02         8.663265E-01
 4.295000E+02         8.663996E-01
 4.305000E+02         8.664721E-01
 4.315000E+02         8.665441E-01
 4.325000E+02         8.666154E-01
 4.335000E+02         8.666862E-01
 4.345000E+02         8.667565E-01
 4.355000E+02         8.668261E-01
 4.365000E+02         8.668952E-01
 4.375000E+02         8.669638E-01
 4.385000E+02         8.670318E-01
 4.395000E+02         8.670993E-01
 4.405000E+02         8.671662E-01
 4.415000E+02         8.672327E-01
 4.425000E+02         8.672986E-01
 4.435000E+02         8.673639E-01
 4.445000E+02         8.674288E-01
 4.455000E+02         8.674931E-01
 4.465000E+02         8.675569E-01
 4.475000E+02         8.676203E-01
 4.485000E+02         8.676831E-01
 4.495000E+02         8.677455E-01
 4.505000E+02         8.678073E-01
 4.515000E+02         8.678687E-01
 4.525000E+02         8.679296E-01
 4.535000E+02         8.679900E-01
 4.545000E+02         8.680500E-01
 4.555000E+02         8.681094E-01
 4.565000E+02         8.681685E-01
 4.575000E+02         8.682270E-01
 4.585000E+02         8.682852E-01
 4.595000E+02         8.683428E-01
 4.605000E+02         8.684000E-01
 4.615000E+02         8.684568E-01
 4.625000E+02         8.685132E-01
 4.635000E+02         8.685691E-01
 4.645000E+02         8.686245E-01
 4.655000E+02         8.686796E-01
 4.665000E+02         8.687342E-01
 4.675000E+02         8.687884E-01
 4.685000E+02         8.688422E-01
 4.695000E+02         8.688956E-01
 4.705000E+02         8.689486E-01
 4.715000E+02         8.690012E-01
 4.725000E+02         8.690534E-01
 4.735000E+02         8.691051E-01
 4.745000E+02         8.691565E-01
 4.755000E+02         8.692075E-01
 4.765000E+02         8.692582E-01
 4.775000E+02         8.693084E-01
 4.785000E+02         8.693582E-01
 4.795000E+02         8.694077E-01
 4.805000E+02         8.694568E-01
 4.815000E+02         8.695056E-01
 4.825000E+02         8.695539E-01
 4.835000E+02         8.696019E-01
 4.845000E+02         8.696496E-01
 4.855000E+02         8.696969E-01
 4.865000E+02         8.697438E-01
 4.875000E+02         8.697904E-01
 4.885000E+02         8.698366E-01
 4.895000E+02         8.698825E-01
 4.905000E+02         8.699281E-01
 4.915000E+02         8.699733E-01
 4.925000E+02         8.700182E-01
 4.935000E+02         8.700627E-01
 4.945000E+02         8.701069E-01
 4.955000E+02         8.701508E-01
 4.965000E+02         8.701944E-01
 4.975000E+02         8.702376E-01
 4.985000E+02         8.702805E-01
 4.995000E+02         8.703231E-01
 5.005000E+02         8.703654E-01
 5.015000E+02         8.704074E-01
 5.025000E+02         8.704491E-01
 5.035000E+02         8.704904E-01
 5.045000E+02         8.705315E-01
 5.055000E+02         8.705723E-01
 5.065000E+02         8.706127E-01
 5.075000E+02         8.706529E-01
 5.085000E+02         8.706928E-01
 5.095000E+02         8.707323E-01
 5.105000E+02         8.707716E-01
 5.115000E+02         8.708106E-01
 5.125000E+02         8.708494E-01
 5.135000E+02         8.708878E-01
 5.145000E+02         8.709260E-01
 5.155000E+02         8.709639E-01
 5.165000E+02         8.710015E-01
 5.175000E+02         8.710388E-01
 5.185000E+02         8.710759E-01
 5.195000E+02         8.711127E-01
 5.205000E+02         8.711492E-01
 5.215000E+02         8.711855E-01
 5.225000E+02         8.712215E-01
 5.235000E+02         8.712573E-01
 5.245000E+02         8.712928E-01
 5.255000E+02         8.713280E-01
 5.265000E+02         8.713630E-01
 5.275000E+02         8.713977E-01
 5.285000E+02         8.714322E-01
 5.295000E+02         8.714665E-01
 5.305000E+02         8.715004E-01
 5.315000E+02         8.715342E-01
 5.325000E+02         8.715677E-01
 5.335000E+02         8.716010E-01
 5.345000E+02         8.716340E-01
 5.355000E+02         8.716668E-01
 5.365000E+02         8.716994E-01
 5.375000E+02         8.717317E-01
 5.385000E+02         8.717638E-01
 5.395000E+02         8.717957E-01
 5.405000E+02         8.718274E-01
 5.415000E+02         8.718588E-01
 5.425000E+02         8.718900E-01
 5.435000E+02         8.719210E-01
 5.445000E+02         8.719517E-01
 5.455000E+02         8.719823E-01
 5.465000E+02         8.720126E-01
 5.475000E+02         8.720427E-01
 5.485000E+02         8.720726E-01
 5.495000E+02         8.721023E-01
 5.505000E+02         8.721318E-01
 5.515000E+02         8.721611E-01
 5.525000E+02         8.721902E-01
 5.535000E+02         8.722190E-01
